 Si ca nrl nc  
 atom 5.69 14-Dec-04   Improved Troullier - Martins potential
 3s(  1.50)  rc= 2.693p(  2.50)  rc= 3.78                              
   2  0 1342   .177053726905E-03   .100000000000E-01   4.00000000000     nl nls nr a b zion 
 Radial grid follows
   .177941953827E-05   .357672254021E-05   .539208873762E-05   .722569966863E-05
   .907773869587E-05   .109483910248E-04   .128378437221E-04   .147462857348E-04
   .166739079086E-04   .186209030073E-04   .205874657320E-04   .225737927407E-04
   .245800826678E-04   .266065361438E-04   .286533558158E-04   .307207463676E-04
   .328089145398E-04   .349180691510E-04   .370484211185E-04   .392001834792E-04
   .413735714112E-04   .435688022550E-04   .457860955356E-04   .480256729841E-04
   .502877585602E-04   .525725784743E-04   .548803612103E-04   .572113375484E-04
   .595657405881E-04   .619438057718E-04   .643457709079E-04   .667718761949E-04
   .692223642455E-04   .716974801104E-04   .741974713033E-04   .767225878254E-04
   .792730821904E-04   .818492094500E-04   .844512272189E-04   .870793957012E-04
   .897339777158E-04   .924152387233E-04   .951234468518E-04   .978588729246E-04
   .100621790486E-03   .103412475831E-03   .106231208030E-03   .109078268959E-03
   .111953943325E-03   .114858518700E-03   .117792285542E-03   .120755537231E-03
   .123748570095E-03   .126771683439E-03   .129825179578E-03   .132909363862E-03
   .136024544714E-03   .139171033655E-03   .142349145334E-03   .145559197568E-03
   .148801511362E-03   .152076410952E-03   .155384223830E-03   .158725280780E-03
   .162099915910E-03   .165508466688E-03   .168951273970E-03   .172428682041E-03
   .175941038644E-03   .179488695017E-03   .183072005930E-03   .186691329717E-03
   .190347028312E-03   .194039467288E-03   .197769015894E-03   .201536047086E-03
   .205340937571E-03   .209184067841E-03   .213065822212E-03   .216986588864E-03
   .220946759875E-03   .224946731267E-03   .228986903040E-03   .233067679213E-03
   .237189467870E-03   .241352681191E-03   .245557735501E-03   .249805051310E-03
   .254095053352E-03   .258428170632E-03   .262804836464E-03   .267225488520E-03
   .271690568867E-03   .276200524017E-03   .280755804971E-03   .285356867259E-03
   .290004170992E-03   .294698180903E-03   .299439366399E-03   .304228201601E-03
   .309065165397E-03   .313950741488E-03   .318885418434E-03   .323869689709E-03
   .328904053742E-03   .333989013975E-03   .339125078908E-03   .344312762152E-03
   .349552582479E-03   .354845063876E-03   .360190735595E-03   .365590132208E-03
   .371043793659E-03   .376552265319E-03   .382116098040E-03   .387735848209E-03
   .393412077806E-03   .399145354460E-03   .404936251501E-03   .410785348025E-03
   .416693228947E-03   .422660485059E-03   .428687713092E-03   .434775515774E-03
   .440924501890E-03   .447135286343E-03   .453408490219E-03   .459744740841E-03
   .466144671841E-03   .472608923216E-03   .479138141398E-03   .485732979314E-03
   .492394096453E-03   .499122158932E-03   .505917839563E-03   .512781817919E-03
   .519714780405E-03   .526717420323E-03   .533790437942E-03   .540934540569E-03
   .548150442622E-03   .555438865696E-03   .562800538639E-03   .570236197626E-03
   .577746586228E-03   .585332455490E-03   .592994564005E-03   .600733677992E-03
   .608550571367E-03   .616446025827E-03   .624420830923E-03   .632475784143E-03
   .640611690989E-03   .648829365057E-03   .657129628124E-03   .665513310220E-03
   .673981249723E-03   .682534293433E-03   .691173296661E-03   .699899123314E-03
   .708712645984E-03   .717614746029E-03   .726606313667E-03   .735688248062E-03
   .744861457415E-03   .754126859055E-03   .763485379530E-03   .772937954698E-03
   .782485529827E-03   .792129059681E-03   .801869508621E-03   .811707850701E-03
   .821645069762E-03   .831682159536E-03   .841820123738E-03   .852059976175E-03
   .862402740839E-03   .872849452017E-03   .883401154387E-03   .894058903129E-03
   .904823764027E-03   .915696813576E-03   .926679139089E-03   .937771838808E-03
   .948976022013E-03   .960292809132E-03   .971723331852E-03   .983268733235E-03
   .994930167830E-03   .100670880179E-02   .101860581299E-02   .103062239115E-02
   .104275973792E-02   .105501906705E-02   .106740160449E-02   .107990858850E-02
   .109254126979E-02   .110530091163E-02   .111818879001E-02   .113120619372E-02
   .114435442451E-02   .115763479722E-02   .117104863989E-02   .118459729392E-02
   .119828211419E-02   .121210446919E-02   .122606574117E-02   .124016732626E-02
   .125441063464E-02   .126879709065E-02   .128332813295E-02   .129800521465E-02
   .131282980347E-02   .132780338188E-02   .134292744727E-02   .135820351203E-02
   .137363310380E-02   .138921776554E-02   .140495905574E-02   .142085854854E-02
   .143691783389E-02   .145313851774E-02   .146952222218E-02   .148607058559E-02
   .150278526281E-02   .151966792533E-02   .153672026143E-02   .155394397636E-02
   .157134079250E-02   .158891244955E-02   .160666070469E-02   .162458733275E-02
   .164269412643E-02   .166098289641E-02   .167945547158E-02   .169811369922E-02
   .171695944516E-02   .173599459400E-02   .175522104926E-02   .177464073362E-02
   .179425558904E-02   .181406757704E-02   .183407867883E-02   .185429089554E-02
   .187470624840E-02   .189532677897E-02   .191615454931E-02   .193719164223E-02
   .195844016145E-02   .197990223183E-02   .200157999961E-02   .202347563258E-02
   .204559132031E-02   .206792927441E-02   .209049172867E-02   .211328093937E-02
   .213629918545E-02   .215954876874E-02   .218303201423E-02   .220675127026E-02
   .223070890878E-02   .225490732557E-02   .227934894049E-02   .230403619772E-02
   .232897156601E-02   .235415753892E-02   .237959663507E-02   .240529139838E-02
   .243124439836E-02   .245745823033E-02   .248393551568E-02   .251067890218E-02
   .253769106418E-02   .256497470292E-02   .259253254679E-02   .262036735159E-02
   .264848190084E-02   .267687900600E-02   .270556150681E-02   .273453227155E-02
   .276379419731E-02   .279335021032E-02   .282320326620E-02   .285335635027E-02
   .288381247788E-02   .291457469466E-02   .294564607686E-02   .297702973164E-02
   .300872879740E-02   .304074644406E-02   .307308587343E-02   .310575031946E-02
   .313874304863E-02   .317206736024E-02   .320572658675E-02   .323972409411E-02
   .327406328210E-02   .330874758467E-02   .334378047027E-02   .337916544223E-02
   .341490603907E-02   .345100583487E-02   .348746843966E-02   .352429749972E-02
   .356149669798E-02   .359906975441E-02   .363702042632E-02   .367535250883E-02
   .371406983518E-02   .375317627712E-02   .379267574534E-02   .383257218982E-02
   .387286960023E-02   .391357200634E-02   .395468347844E-02   .399620812770E-02
   .403815010663E-02   .408051360945E-02   .412330287255E-02   .416652217490E-02
   .421017583845E-02   .425426822862E-02   .429880375468E-02   .434378687021E-02
   .438922207357E-02   .443511390832E-02   .448146696368E-02   .452828587498E-02
   .457557532417E-02   .462334004022E-02   .467158479965E-02   .472031442697E-02
   .476953379519E-02   .481924782628E-02   .486946149170E-02   .492017981284E-02
   .497140786158E-02   .502315076077E-02   .507541368474E-02   .512820185983E-02
   .518152056490E-02   .523537513187E-02   .528977094623E-02   .534471344762E-02
   .540020813032E-02   .545626054386E-02   .551287629352E-02   .557006104092E-02
   .562782050459E-02   .568616046052E-02   .574508674275E-02   .580460524397E-02
   .586472191606E-02   .592544277076E-02   .598677388019E-02   .604872137752E-02
   .611129145755E-02   .617449037734E-02   .623832445683E-02   .630280007948E-02
   .636792369292E-02   .643370180955E-02   .650014100724E-02   .656724792997E-02
   .663502928849E-02   .670349186099E-02   .677264249378E-02   .684248810198E-02
   .691303567021E-02   .698429225330E-02   .705626497694E-02   .712896103849E-02
   .720238770760E-02   .727655232701E-02   .735146231323E-02   .742712515733E-02
   .750354842565E-02   .758073976059E-02   .765870688135E-02   .773745758469E-02
   .781699974576E-02   .789734131884E-02   .797849033816E-02   .806045491867E-02
   .814324325692E-02   .822686363179E-02   .831132440541E-02   .839663402391E-02
   .848280101834E-02   .856983400545E-02   .865774168863E-02   .874653285871E-02
   .883621639488E-02   .892680126558E-02   .901829652937E-02   .911071133584E-02
   .920405492656E-02   .929833663596E-02   .939356589230E-02   .948975221857E-02
   .958690523349E-02   .968503465244E-02   .978415028846E-02   .988426205317E-02
   .998537995785E-02   .100875141144E-01   .101906747362E-01   .102948721395E-01
   .104001167442E-01   .105064190747E-01   .106137897614E-01   .107222395414E-01
   .108317792599E-01   .109424198708E-01   .110541724384E-01   .111670481379E-01
   .112810582570E-01   .113962141969E-01   .115125274733E-01   .116300097175E-01
   .117486726779E-01   .118685282209E-01   .119895883321E-01   .121118651176E-01
   .122353708053E-01   .123601177457E-01   .124861184138E-01   .126133854096E-01
   .127419314600E-01   .128717694197E-01   .130029122726E-01   .131353731331E-01
   .132691652473E-01   .134043019946E-01   .135407968889E-01   .136786635796E-01
   .138179158536E-01   .139585676362E-01   .141006329927E-01   .142441261299E-01
   .143890613970E-01   .145354532877E-01   .146833164415E-01   .148326656446E-01
   .149835158321E-01   .151358820893E-01   .152897796528E-01   .154452239125E-01
   .156022304131E-01   .157608148551E-01   .159209930973E-01   .160827811577E-01
   .162461952150E-01   .164112516109E-01   .165779668512E-01   .167463576075E-01
   .169164407191E-01   .170882331943E-01   .172617522126E-01   .174370151261E-01
   .176140394611E-01   .177928429202E-01   .179734433840E-01   .181558589126E-01
   .183401077478E-01   .185262083145E-01   .187141792231E-01   .189040392707E-01
   .190958074434E-01   .192895029184E-01   .194851450652E-01   .196827534483E-01
   .198823478287E-01   .200839481659E-01   .202875746203E-01   .204932475545E-01
   .207009875360E-01   .209108153391E-01   .211227519467E-01   .213368185525E-01
   .215530365636E-01   .217714276017E-01   .219920135063E-01   .222148163361E-01
   .224398583716E-01   .226671621171E-01   .228967503033E-01   .231286458890E-01
   .233628720642E-01   .235994522515E-01   .238384101093E-01   .240797695334E-01
   .243235546601E-01   .245697898681E-01   .248184997810E-01   .250697092702E-01
   .253234434566E-01   .255797277140E-01   .258385876711E-01   .261000492139E-01
   .263641384890E-01   .266308819053E-01   .269003061376E-01   .271724381285E-01
   .274473050913E-01   .277249345130E-01   .280053541568E-01   .282885920648E-01
   .285746765612E-01   .288636362546E-01   .291555000411E-01   .294502971075E-01
   .297480569336E-01   .300488092958E-01   .303525842694E-01   .306594122323E-01
   .309693238675E-01   .312823501664E-01   .315985224319E-01   .319178722815E-01
   .322404316504E-01   .325662327949E-01   .328953082953E-01   .332276910595E-01
   .335634143260E-01   .339025116675E-01   .342450169938E-01   .345909645560E-01
   .349403889489E-01   .352933251153E-01   .356498083492E-01   .360098742992E-01
   .363735589721E-01   .367408987368E-01   .371119303275E-01   .374866908476E-01
   .378652177736E-01   .382475489584E-01   .386337226356E-01   .390237774227E-01
   .394177523256E-01   .398156867421E-01   .402176204659E-01   .406235936909E-01
   .410336470146E-01   .414478214427E-01   .418661583930E-01   .422886996995E-01
   .427154876168E-01   .431465648240E-01   .435819744291E-01   .440217599735E-01
   .444659654361E-01   .449146352379E-01   .453678142461E-01   .458255477790E-01
   .462878816105E-01   .467548619742E-01   .472265355685E-01   .477029495614E-01
   .481841515944E-01   .486701897883E-01   .491611127472E-01   .496569695639E-01
   .501578098244E-01   .506636836133E-01   .511746415182E-01   .516907346355E-01
   .522120145748E-01   .527385334646E-01   .532703439573E-01   .538074992342E-01
   .543500530114E-01   .548980595448E-01   .554515736353E-01   .560106506350E-01
   .565753464519E-01   .571457175561E-01   .577218209853E-01   .583037143501E-01
   .588914558405E-01   .594851042310E-01   .600847188871E-01   .606903597707E-01
   .613020874463E-01   .619199630873E-01   .625440484817E-01   .631744060386E-01
   .638110987943E-01   .644541904185E-01   .651037452210E-01   .657598281579E-01
   .664225048378E-01   .670918415291E-01   .677679051660E-01   .684507633554E-01
   .691404843837E-01   .698371372236E-01   .705407915409E-01   .712515177017E-01
   .719693867791E-01   .726944705607E-01   .734268415555E-01   .741665730011E-01
   .749137388714E-01   .756684138835E-01   .764306735055E-01   .772005939642E-01
   .779782522520E-01   .787637261356E-01   .795570941630E-01   .803584356716E-01
   .811678307963E-01   .819853604772E-01   .828111064680E-01   .836451513439E-01
   .844875785103E-01   .853384722104E-01   .861979175343E-01   .870660004274E-01
   .879428076986E-01   .888284270293E-01   .897229469823E-01   .906264570103E-01
   .915390474651E-01   .924608096064E-01   .933918356112E-01   .943322185829E-01
   .952820525606E-01   .962414325285E-01   .972104544254E-01   .981892151542E-01
   .991778125919E-01   .100176345599       .101184914030       .102203618742    
   .103232561606       .104271845518       .105321574408       .106381853247    
   .107452788067       .108534485960       .109627055098       .110730604738    
   .111845245237       .112971088058       .114108245789       .115256832144    
   .116416961984       .117588751323       .118772317341       .119967778394    
   .121175254032       .122394865001       .123626733264       .124870982009    
   .126127735661       .127397119898       .128679261659       .129974289158    
   .131282331900       .132603520691       .133937987649       .135285866223    
   .136647291203       .138022398730       .139411326319       .140814212861    
   .142231198648       .143662425378       .145108036176       .146568175605    
   .148042989678       .149532625880       .151037233174       .152556962023    
   .154091964401       .155642393809       .157208405291       .158790155451    
   .160387802464       .162001506097       .163631427721       .165277730329    
   .166940578554       .168620138681       .170316578668       .172030068160    
   .173760778508       .175508882784       .177274555801       .179057974126    
   .180859316103       .182678761868       .184516493367       .186372694375    
   .188247550513       .190141249268       .192053980012       .193985934020    
   .195937304489       .197908286556       .199899077323       .201909875870    
   .203940883278       .205992302649       .208064339129       .210157199921    
   .212271094313       .214406233698       .216562831590       .218741103651    
   .220941267711       .223163543786       .225408154108       .227675323139    
   .229965277597       .232278246480       .234614461086       .236974155040    
   .239357564312       .241764927246       .244196484580       .246652479470    
   .249133157520       .251638766799       .254169557870       .256725783814    
   .259307700255       .261915565389       .264549640002       .267210187506    
   .269897473957       .272611768085       .275353341323       .278122467830    
   .280919424521       .283744491094       .286597950058       .289480086762    
   .292391189421       .295331549148       .298301459982       .301301218916    
   .304331125928       .307391484012       .310482599206       .313604780624    
   .316758340488       .319943594154       .323160860153       .326410460212    
   .329692719295       .333007965629       .336356530744       .339738749497    
   .343154960114       .346605504219       .350090726868       .353610976587    
   .357166605404       .360757968885       .364385426169       .368049340004    
   .371750076786       .375488006591       .379263503215       .383076944210    
   .386928710925       .390819188539       .394748766103       .398717836579    
   .402726796875       .406776047893       .410865994559       .414997045873    
   .419169614943       .423384119030       .427640979586       .431940622303    
   .436283477147       .440669978408       .445100564739       .449575679204    
   .454095769316       .458661287089       .463272689079       .467930436430    
   .472634994919       .477386835007       .482186431882       .487034265508    
   .491930820672       .496876587033       .501872059172       .506917736641    
   .512014124012       .517161730927       .522361072152       .527612667625    
   .532917042510       .538274727249       .543686257615       .549152174764    
   .554673025295       .560249361296       .565881740405       .571570725866    
   .577316886581       .583120797171       .588983038032       .594904195394    
   .600884861376       .606925634051       .613027117500       .619189921878    
   .625414663469       .631701964753       .638052454466       .644466767661    
   .650945545776       .657489436693       .664099094808       .670775181090    
   .677518363156       .684329315328       .691208718707       .698157261239    
   .705175637785       .712264550188       .719424707345       .726656825278    
   .733961627205       .741339843611       .748792212325       .756319478590    
   .763922395138       .771601722268       .779358227919       .787192687747    
   .795105885206       .803098611622       .811171666273       .819325856473    
   .827561997646       .835880913415       .844283435676       .852770404691    
   .861342669162       .870001086323       .878746522024       .887579850814    
   .896501956035       .905513729904       .914616073606       .923809897383    
   .933096120626       .942475671963       .951949489359       .961518520202    
   .971183721404       .980946059493       .990806510711       1.00076606111    
   1.01082570666       1.02098645332       1.03124931719       1.04161532455    
   1.05208551202       1.06266092662       1.07334262591       1.08413167806    
   1.09502916198       1.10603616744       1.11715379514       1.12838315686    
   1.13972537554       1.15118158542       1.16275293212       1.17444057278    
   1.18624567619       1.19816942285       1.21021300517       1.22237762750    
   1.23466450631       1.24707487031       1.25960996055       1.27227103053    
   1.28505934638       1.29797618695       1.31102284392       1.32420062197    
   1.33751083889       1.35095482572       1.36453392686       1.37824950024    
   1.39210291742       1.40609556376       1.42022883853       1.43450415507    
   1.44892294093       1.46348663800       1.47819670266       1.49305460592    
   1.50806183360       1.52321988642       1.53853028020       1.55399454600    
   1.56961423026       1.58539089495       1.60132611775       1.61742149221    
   1.63367862788       1.65009915047       1.66668470205       1.68343694121    
   1.70035754316       1.71744819999       1.73471062078       1.75214653178    
   1.76975767660       1.78754581637       1.80551272991       1.82366021394    
   1.84199008322       1.86050417074       1.87920432793       1.89809242484    
   1.91717035027       1.93644001203       1.95590333712       1.97556227188    
   1.99541878222       2.01547485380       2.03573249226       2.05619372336    
   2.07686059326       2.09773516865       2.11881953701       2.14011580680    
   2.16162610766       2.18335259063       2.20529742839       2.22746281544    
   2.24985096833       2.27246412589       2.29530454947       2.31837452312    
   2.34167635386       2.36521237189       2.38898493084       2.41299640798    
   2.43724920447       2.46174574562       2.48648848110       2.51147988521    
   2.53672245710       2.56221872106       2.58797122674       2.61398254939    
   2.64025529019       2.66679207642       2.69359556179       2.72066842666    
   2.74801337835       2.77563315137       2.80353050772       2.83170823717    
   2.86016915751       2.88891611485       2.91795198392       2.94727966832    
